freq,psd_x,psd_y,psd_z,psd_xyz
0.0,2.934e+03,4.939e+01,2.018e+02,3.185e+03
1.5,2.428e+03,2.122e+02,4.617e+02,3.102e+03
3.0,1.003e+03,2.953e+02,4.847e+02,1.783e+03
4.5,1.177e+03,2.905e+02,4.564e+02,1.924e+03
6.0,2.167e+03,3.384e+02,4.647e+02,2.970e+03
7.5,2.966e+03,4.293e+02,4.563e+02,3.852e+03
9.0,3.650e+03,3.839e+02,4.714e+02,4.505e+03
10.6,4.667e+03,2.909e+02,4.632e+02,5.421e+03
12.1,6.248e+03,3.239e+02,4.283e+02,7.000e+03
13.6,7.912e+03,4.031e+02,3.781e+02,8.693e+03
15.1,9.360e+03,3.609e+02,3.560e+02,1.008e+04
16.6,1.116e+04,3.083e+02,3.324e+02,1.180e+04
18.1,1.326e+04,3.433e+02,3.209e+02,1.392e+04
19.6,1.597e+04,3.986e+02,2.967e+02,1.666e+04
21.1,1.885e+04,3.866e+02,2.776e+02,1.951e+04
22.6,2.069e+04,4.011e+02,2.786e+02,2.137e+04
24.1,2.266e+04,3.907e+02,2.983e+02,2.335e+04
25.6,2.513e+04,3.930e+02,2.689e+02,2.579e+04
27.1,2.765e+04,3.753e+02,2.197e+02,2.825e+04
28.7,3.032e+04,3.583e+02,1.952e+02,3.087e+04
30.2,3.427e+04,3.521e+02,1.942e+02,3.482e+04
31.7,3.994e+04,3.231e+02,1.783e+02,4.044e+04
33.2,4.642e+04,4.265e+02,1.954e+02,4.704e+04
34.7,5.189e+04,4.261e+02,1.945e+02,5.251e+04
36.2,5.597e+04,4.017e+02,1.833e+02,5.655e+04
37.7,6.020e+04,4.570e+02,1.947e+02,6.086e+04
39.2,6.524e+04,4.818e+02,2.119e+02,6.593e+04
40.7,7.109e+04,4.237e+02,1.955e+02,7.171e+04
42.2,7.737e+04,4.219e+02,1.972e+02,7.799e+04
43.7,8.419e+04,4.624e+02,2.042e+02,8.486e+04
45.2,9.187e+04,5.040e+02,2.198e+02,9.260e+04
46.7,9.989e+04,4.968e+02,2.470e+02,1.006e+05
48.3,1.093e+05,5.260e+02,2.613e+02,1.101e+05
49.8,1.193e+05,5.319e+02,2.965e+02,1.201e+05
51.3,1.305e+05,5.415e+02,3.212e+02,1.313e+05
52.8,1.435e+05,4.801e+02,4.061e+02,1.444e+05
54.3,1.592e+05,5.193e+02,4.749e+02,1.602e+05
55.8,1.776e+05,5.501e+02,5.591e+02,1.788e+05
57.3,1.977e+05,5.607e+02,6.425e+02,1.989e+05
58.8,2.162e+05,5.603e+02,6.861e+02,2.175e+05
60.3,2.285e+05,5.434e+02,8.896e+02,2.299e+05
61.8,2.426e+05,5.817e+02,1.334e+03,2.445e+05
63.3,2.640e+05,5.489e+02,1.432e+03,2.660e+05
64.8,2.885e+05,5.050e+02,1.555e+03,2.906e+05
66.4,3.181e+05,5.050e+02,1.799e+03,3.204e+05
67.9,3.598e+05,5.570e+02,2.069e+03,3.624e+05
69.4,4.086e+05,5.474e+02,2.419e+03,4.115e+05
70.9,4.603e+05,5.016e+02,2.966e+03,4.638e+05
72.4,4.870e+05,4.105e+02,3.601e+03,4.910e+05
73.9,5.266e+05,3.803e+02,4.466e+03,5.315e+05
75.4,6.085e+05,3.942e+02,5.454e+03,6.144e+05
76.9,7.148e+05,3.639e+02,6.678e+03,7.218e+05
78.4,8.657e+05,3.301e+02,8.656e+03,8.747e+05
79.9,1.033e+06,3.146e+02,1.137e+04,1.045e+06
81.4,1.260e+06,3.743e+02,1.561e+04,1.276e+06
82.9,1.592e+06,4.324e+02,2.199e+04,1.615e+06
84.4,2.030e+06,3.826e+02,3.132e+04,2.062e+06
86.0,2.773e+06,3.398e+02,4.777e+04,2.822e+06
87.5,4.196e+06,6.159e+02,8.114e+04,4.277e+06
89.0,6.772e+06,1.607e+03,1.567e+05,6.930e+06
90.5,1.217e+07,4.456e+03,3.416e+05,1.252e+07
92.0,2.318e+07,9.548e+03,7.681e+05,2.395e+07
93.5,3.507e+07,1.443e+04,1.337e+06,3.642e+07
95.0,3.798e+07,1.947e+04,1.656e+06,3.966e+07
96.5,3.363e+07,2.265e+04,1.690e+06,3.535e+07
98.0,2.785e+07,2.304e+04,1.571e+06,2.944e+07
99.5,2.206e+07,2.000e+04,1.331e+06,2.341e+07
101.0,1.712e+07,1.956e+04,1.088e+06,1.823e+07
102.5,1.299e+07,2.018e+04,8.865e+05,1.389e+07
104.1,9.915e+06,1.791e+04,7.452e+05,1.068e+07
105.6,7.865e+06,1.576e+04,6.461e+05,8.527e+06
107.1,6.748e+06,1.490e+04,6.021e+05,7.365e+06
108.6,5.516e+06,1.346e+04,5.327e+05,6.062e+06
110.1,4.548e+06,1.207e+04,4.916e+05,5.051e+06
111.6,3.900e+06,1.097e+04,4.844e+05,4.395e+06
113.1,3.307e+06,1.008e+04,4.811e+05,3.798e+06
114.6,2.781e+06,9.279e+03,4.912e+05,3.282e+06
116.1,2.226e+06,8.343e+03,4.894e+05,2.724e+06
117.6,1.632e+06,6.680e+03,4.605e+05,2.100e+06
119.1,1.206e+06,5.835e+03,4.597e+05,1.672e+06
120.6,9.076e+05,6.453e+03,4.652e+05,1.379e+06
122.1,5.378e+05,7.803e+03,3.397e+05,8.853e+05
123.7,1.445e+05,8.481e+03,1.188e+05,2.718e+05
125.2,2.495e+04,9.610e+03,5.152e+04,8.608e+04
126.7,1.979e+04,1.157e+04,4.694e+04,7.830e+04
128.2,2.127e+04,1.540e+04,4.921e+04,8.588e+04
129.7,2.270e+04,2.059e+04,5.324e+04,9.653e+04
131.2,2.468e+04,2.658e+04,5.711e+04,1.084e+05
132.7,2.539e+04,2.275e+04,4.342e+04,9.156e+04
134.2,2.753e+04,4.792e+03,8.085e+03,4.040e+04
135.7,2.525e+04,9.837e+02,8.929e+02,2.713e+04
137.2,2.760e+04,8.535e+02,7.507e+02,2.920e+04
138.7,2.852e+04,8.554e+02,6.197e+02,2.999e+04
140.2,2.749e+04,1.044e+03,5.434e+02,2.907e+04
141.8,2.834e+04,1.368e+03,5.506e+02,3.026e+04
143.3,2.990e+04,1.810e+03,6.637e+02,3.237e+04
144.8,2.961e+04,2.187e+03,8.509e+02,3.264e+04
146.3,3.326e+04,3.030e+03,1.196e+03,3.748e+04
147.8,3.338e+04,3.966e+03,1.670e+03,3.901e+04
149.3,4.000e+04,6.489e+03,2.823e+03,4.932e+04
150.8,4.330e+04,1.066e+04,4.424e+03,5.838e+04
152.3,4.798e+04,1.790e+04,7.009e+03,7.289e+04
153.8,4.162e+04,2.563e+04,8.911e+03,7.616e+04
155.3,2.845e+04,2.953e+04,8.842e+03,6.682e+04
156.8,1.353e+04,2.717e+04,6.613e+03,4.731e+04
158.3,6.735e+03,2.211e+04,4.391e+03,3.324e+04
159.8,4.566e+03,1.684e+04,2.662e+03,2.407e+04
161.4,4.653e+03,1.346e+04,1.650e+03,1.977e+04
162.9,5.399e+03,1.241e+04,1.093e+03,1.890e+04
164.4,7.205e+03,1.248e+04,8.213e+02,2.050e+04
165.9,9.118e+03,1.246e+04,6.157e+02,2.220e+04
167.4,1.331e+04,1.503e+04,6.866e+02,2.903e+04
168.9,1.554e+04,1.508e+04,9.304e+02,3.155e+04
170.4,1.701e+04,1.372e+04,1.186e+03,3.191e+04
171.9,1.704e+04,1.127e+04,1.539e+03,2.985e+04
173.4,1.426e+04,7.896e+03,1.700e+03,2.386e+04
174.9,9.546e+03,4.422e+03,1.477e+03,1.544e+04
176.4,6.818e+03,2.963e+03,1.433e+03,1.121e+04
177.9,8.798e+03,3.741e+03,1.956e+03,1.449e+04
179.4,1.434e+04,5.524e+03,3.072e+03,2.293e+04
181.0,2.163e+04,7.200e+03,4.495e+03,3.333e+04
182.5,3.247e+04,8.349e+03,6.533e+03,4.736e+04
184.0,6.357e+04,1.398e+04,1.265e+04,9.020e+04
185.5,9.206e+04,1.947e+04,1.995e+04,1.315e+05
187.0,8.556e+04,1.849e+04,2.130e+04,1.254e+05
188.5,6.757e+04,1.490e+04,1.815e+04,1.006e+05
190.0,5.369e+04,9.327e+03,1.361e+04,7.663e+04
191.5,4.669e+04,5.555e+03,1.076e+04,6.300e+04
193.0,4.396e+04,5.395e+03,8.738e+03,5.809e+04
194.5,4.454e+04,5.773e+03,9.237e+03,5.955e+04
196.0,4.308e+04,5.377e+03,8.577e+03,5.703e+04
197.5,3.544e+04,3.789e+03,6.404e+03,4.563e+04
199.1,2.631e+04,2.722e+03,4.195e+03,3.323e+04
